# density_upper_fluid = 1.000000000e+00, density_lower_fluid = 1.000000000e+03
# density ratio = 1.000000000e+03
# kinematic viscosity = 1.000000000e-02, wave number = 6.283185307e+00
# dynamic viscosity of upper fluid = 1.000000000e-02, dynamic viscosity of lower fluid = 1.000000000e+01
# dynamics viscosity ratio = 1.000000000e+03
# gravitational acceleration = 1.000000000e+00
# surface tension = 1.000000000e+00, initial amplitude H0 = 1.000000000e-02
# omega_0 = 2.553122383e+00, nu_bar = 1.546279876e-01, beta = 9.980029960e-04

variables = t, H, omega_t
0.000000 1.000000000000e-02 0.000000000000e+00 
0.000500 9.999991854356e-03 1.276561191386e-03 
0.001000 9.999967426327e-03 2.553122382772e-03 
0.001500 9.999926728969e-03 3.829683574159e-03 
0.002000 9.999869775167e-03 5.106244765545e-03 
0.002500 9.999796577713e-03 6.382805956931e-03 
0.003000 9.999707149333e-03 7.659367148317e-03 
0.003500 9.999601502704e-03 8.935928339703e-03 
0.004000 9.999479650460e-03 1.021248953109e-02 
0.004500 9.999341605204e-03 1.148905072248e-02 
0.005000 9.999187379510e-03 1.276561191386e-02 
0.005500 9.999016985928e-03 1.404217310525e-02 
0.006000 9.998830436985e-03 1.531873429663e-02 
0.006500 9.998627745193e-03 1.659529548802e-02 
0.007000 9.998408923046e-03 1.787185667941e-02 
0.007500 9.998173983022e-03 1.914841787079e-02 
0.008000 9.997922937590e-03 2.042497906218e-02 
0.008500 9.997655799204e-03 2.170154025357e-02 
0.009000 9.997372580310e-03 2.297810144495e-02 
0.009500 9.997073293345e-03 2.425466263634e-02 
0.010000 9.996757950738e-03 2.553122382772e-02 
0.010500 9.996426564909e-03 2.680778501911e-02 
0.011000 9.996079148275e-03 2.808434621050e-02 
0.011500 9.995715713246e-03 2.936090740188e-02 
0.012000 9.995336272226e-03 3.063746859327e-02 
0.012500 9.994940837616e-03 3.191402978465e-02 
0.013000 9.994529421815e-03 3.319059097604e-02 
0.013500 9.994102037217e-03 3.446715216743e-02 
0.014000 9.993658696213e-03 3.574371335881e-02 
0.014500 9.993199411193e-03 3.702027455020e-02 
0.015000 9.992724194547e-03 3.829683574159e-02 
0.015500 9.992233058660e-03 3.957339693297e-02 
0.016000 9.991726015920e-03 4.084995812436e-02 
0.016500 9.991203078713e-03 4.212651931574e-02 
0.017000 9.990664259424e-03 4.340308050713e-02 
0.017500 9.990109570440e-03 4.467964169852e-02 
0.018000 9.989539024148e-03 4.595620288990e-02 
0.018500 9.988952632935e-03 4.723276408129e-02 
0.019000 9.988350409190e-03 4.850932527268e-02 
0.019500 9.987732365303e-03 4.978588646406e-02 
0.020000 9.987098513667e-03 5.106244765545e-02 
0.020500 9.986448866676e-03 5.233900884683e-02 
0.021000 9.985783436724e-03 5.361557003822e-02 
0.021500 9.985102236212e-03 5.489213122961e-02 
0.022000 9.984405277539e-03 5.616869242099e-02 
0.022500 9.983692573110e-03 5.744525361238e-02 
0.023000 9.982964135332e-03 5.872181480377e-02 
0.023500 9.982219976614e-03 5.999837599515e-02 
0.024000 9.981460109369e-03 6.127493718654e-02 
0.024500 9.980684546015e-03 6.255149837792e-02 
0.025000 9.979893298973e-03 6.382805956931e-02 
0.025500 9.979086380666e-03 6.510462076070e-02 
0.026000 9.978263803523e-03 6.638118195208e-02 
0.026500 9.977425579976e-03 6.765774314347e-02 
0.027000 9.976571722463e-03 6.893430433485e-02 
0.027500 9.975702243424e-03 7.021086552624e-02 
0.028000 9.974817155306e-03 7.148742671763e-02 
0.028500 9.973916470558e-03 7.276398790901e-02 
0.029000 9.973000201637e-03 7.404054910040e-02 
0.029500 9.972068361002e-03 7.531711029179e-02 
0.030000 9.971120961120e-03 7.659367148317e-02 
0.030500 9.970158014459e-03 7.787023267456e-02 
0.031000 9.969179533497e-03 7.914679386594e-02 
0.031500 9.968185530714e-03 8.042335505733e-02 
0.032000 9.967176018597e-03 8.169991624872e-02 
0.032500 9.966151009637e-03 8.297647744010e-02 
0.033000 9.965110516334e-03 8.425303863149e-02 
0.033500 9.964054551190e-03 8.552959982288e-02 
0.034000 9.962983126714e-03 8.680616101426e-02 
0.034500 9.961896255423e-03 8.808272220565e-02 
0.035000 9.960793949837e-03 8.935928339703e-02 
0.035500 9.959676222485e-03 9.063584458842e-02 
0.036000 9.958543085899e-03 9.191240577981e-02 
0.036500 9.957394552619e-03 9.318896697119e-02 
0.037000 9.956230635193e-03 9.446552816258e-02 
0.037500 9.955051346171e-03 9.574208935396e-02 
0.038000 9.953856698115e-03 9.701865054535e-02 
0.038500 9.952646703589e-03 9.829521173674e-02 
0.039000 9.951421375165e-03 9.957177292812e-02 
0.039500 9.950180725422e-03 1.008483341195e-01 
0.040000 9.948924766947e-03 1.021248953109e-01 
0.040500 9.947653512331e-03 1.034014565023e-01 
0.041000 9.946366974173e-03 1.046780176937e-01 
0.041500 9.945065165081e-03 1.059545788851e-01 
0.042000 9.943748097667e-03 1.072311400764e-01 
0.042500 9.942415784551e-03 1.085077012678e-01 
0.043000 9.941068238360e-03 1.097842624592e-01 
0.043500 9.939705471730e-03 1.110608236506e-01 
0.044000 9.938327497301e-03 1.123373848420e-01 
0.044500 9.936934327722e-03 1.136139460334e-01 
0.045000 9.935525975649e-03 1.148905072248e-01 
0.045500 9.934102453746e-03 1.161670684161e-01 
0.046000 9.932663774683e-03 1.174436296075e-01 
0.046500 9.931209951139e-03 1.187201907989e-01 
0.047000 9.929740995799e-03 1.199967519903e-01 
0.047500 9.928256921355e-03 1.212733131817e-01 
0.048000 9.926757740509e-03 1.225498743731e-01 
0.048500 9.925243465969e-03 1.238264355645e-01 
0.049000 9.923714110450e-03 1.251029967558e-01 
0.049500 9.922169686675e-03 1.263795579472e-01 
0.050000 9.920610207377e-03 1.276561191386e-01 
0.050500 9.919035685293e-03 1.289326803300e-01 
0.051000 9.917446133169e-03 1.302092415214e-01 
0.051500 9.915841563761e-03 1.314858027128e-01 
0.052000 9.914221989831e-03 1.327623639042e-01 
0.052500 9.912587424147e-03 1.340389250956e-01 
0.053000 9.910937879489e-03 1.353154862869e-01 
0.053500 9.909273368641e-03 1.365920474783e-01 
0.054000 9.907593904397e-03 1.378686086697e-01 
0.054500 9.905899499559e-03 1.391451698611e-01 
0.055000 9.904190166936e-03 1.404217310525e-01 
0.055500 9.902465919347e-03 1.416982922439e-01 
0.056000 9.900726769615e-03 1.429748534353e-01 
0.056500 9.898972730576e-03 1.442514146266e-01 
0.057000 9.897203815071e-03 1.455279758180e-01 
0.057500 9.895420035949e-03 1.468045370094e-01 
0.058000 9.893621406069e-03 1.480810982008e-01 
0.058500 9.891807938296e-03 1.493576593922e-01 
0.059000 9.889979645506e-03 1.506342205836e-01 
0.059500 9.888136540580e-03 1.519107817750e-01 
0.060000 9.886278636409e-03 1.531873429663e-01 
0.060500 9.884405945893e-03 1.544639041577e-01 
0.061000 9.882518481937e-03 1.557404653491e-01 
0.061500 9.880616257459e-03 1.570170265405e-01 
0.062000 9.878699285381e-03 1.582935877319e-01 
0.062500 9.876767578636e-03 1.595701489233e-01 
0.063000 9.874821150163e-03 1.608467101147e-01 
0.063500 9.872860012912e-03 1.621232713060e-01 
0.064000 9.870884179840e-03 1.633998324974e-01 
0.064500 9.868893663912e-03 1.646763936888e-01 
0.065000 9.866888478103e-03 1.659529548802e-01 
0.065500 9.864868635393e-03 1.672295160716e-01 
0.066000 9.862834148774e-03 1.685060772630e-01 
0.066500 9.860785031246e-03 1.697826384544e-01 
0.067000 9.858721295814e-03 1.710591996458e-01 
0.067500 9.856642955496e-03 1.723357608371e-01 
0.068000 9.854550023317e-03 1.736123220285e-01 
0.068500 9.852442512307e-03 1.748888832199e-01 
0.069000 9.850320435510e-03 1.761654444113e-01 
0.069500 9.848183805975e-03 1.774420056027e-01 
0.070000 9.846032636761e-03 1.787185667941e-01 
0.070500 9.843866940934e-03 1.799951279855e-01 
0.071000 9.841686731569e-03 1.812716891768e-01 
0.071500 9.839492021752e-03 1.825482503682e-01 
0.072000 9.837282824573e-03 1.838248115596e-01 
0.072500 9.835059153135e-03 1.851013727510e-01 
0.073000 9.832821020547e-03 1.863779339424e-01 
0.073500 9.830568439927e-03 1.876544951338e-01 
0.074000 9.828301424402e-03 1.889310563252e-01 
0.074500 9.826019987108e-03 1.902076175165e-01 
0.075000 9.823724141187e-03 1.914841787079e-01 
0.075500 9.821413899793e-03 1.927607398993e-01 
0.076000 9.819089276087e-03 1.940373010907e-01 
0.076500 9.816750283239e-03 1.953138622821e-01 
0.077000 9.814396934427e-03 1.965904234735e-01 
0.077500 9.812029242837e-03 1.978669846649e-01 
0.078000 9.809647221667e-03 1.991435458562e-01 
0.078500 9.807250884118e-03 2.004201070476e-01 
0.079000 9.804840243406e-03 2.016966682390e-01 
0.079500 9.802415312750e-03 2.029732294304e-01 
0.080000 9.799976105381e-03 2.042497906218e-01 
0.080500 9.797522634538e-03 2.055263518132e-01 
0.081000 9.795054913469e-03 2.068029130046e-01 
0.081500 9.792572955428e-03 2.080794741960e-01 
0.082000 9.790076773681e-03 2.093560353873e-01 
0.082500 9.787566381502e-03 2.106325965787e-01 
0.083000 9.785041792171e-03 2.119091577701e-01 
0.083500 9.782503018980e-03 2.131857189615e-01 
0.084000 9.779950075228e-03 2.144622801529e-01 
0.084500 9.777382974223e-03 2.157388413443e-01 
0.085000 9.774801729280e-03 2.170154025357e-01 
0.085500 9.772206353727e-03 2.182919637270e-01 
0.086000 9.769596860896e-03 2.195685249184e-01 
0.086500 9.766973264129e-03 2.208450861098e-01 
0.087000 9.764335576779e-03 2.221216473012e-01 
0.087500 9.761683812204e-03 2.233982084926e-01 
0.088000 9.759017983773e-03 2.246747696840e-01 
0.088500 9.756338104864e-03 2.259513308754e-01 
0.089000 9.753644188861e-03 2.272278920667e-01 
0.089500 9.750936249160e-03 2.285044532581e-01 
0.090000 9.748214299163e-03 2.297810144495e-01 
0.090500 9.745478352283e-03 2.310575756409e-01 
0.091000 9.742728421938e-03 2.323341368323e-01 
0.091500 9.739964521559e-03 2.336106980237e-01 
0.092000 9.737186664582e-03 2.348872592151e-01 
0.092500 9.734394864455e-03 2.361638204064e-01 
0.093000 9.731589134631e-03 2.374403815978e-01 
0.093500 9.728769488574e-03 2.387169427892e-01 
0.094000 9.725935939757e-03 2.399935039806e-01 
0.094500 9.723088501659e-03 2.412700651720e-01 
0.095000 9.720227187771e-03 2.425466263634e-01 
0.095500 9.717352011590e-03 2.438231875548e-01 
0.096000 9.714462986622e-03 2.450997487461e-01 
0.096500 9.711560126383e-03 2.463763099375e-01 
0.097000 9.708643444396e-03 2.476528711289e-01 
0.097500 9.705712954194e-03 2.489294323203e-01 
0.098000 9.702768669318e-03 2.502059935117e-01 
0.098500 9.699810603316e-03 2.514825547031e-01 
0.099000 9.696838769747e-03 2.527591158945e-01 
0.099500 9.693853182178e-03 2.540356770859e-01 
0.100000 9.690853854184e-03 2.553122382772e-01 
0.100500 9.687840799347e-03 2.565887994686e-01 
0.101000 9.684814031262e-03 2.578653606600e-01 
0.101500 9.681773563527e-03 2.591419218514e-01 
0.102000 9.678719409754e-03 2.604184830428e-01 
0.102500 9.675651583559e-03 2.616950442342e-01 
0.103000 9.672570098569e-03 2.629716054256e-01 
0.103500 9.669474968419e-03 2.642481666169e-01 
0.104000 9.666366206753e-03 2.655247278083e-01 
0.104500 9.663243827221e-03 2.668012889997e-01 
0.105000 9.660107843485e-03 2.680778501911e-01 
0.105500 9.656958269214e-03 2.693544113825e-01 
0.106000 9.653795118085e-03 2.706309725739e-01 
0.106500 9.650618403784e-03 2.719075337653e-01 
0.107000 9.647428140005e-03 2.731840949566e-01 
0.107500 9.644224340451e-03 2.744606561480e-01 
0.108000 9.641007018834e-03 2.757372173394e-01 
0.108500 9.637776188872e-03 2.770137785308e-01 
0.109000 9.634531864295e-03 2.782903397222e-01 
0.109500 9.631274058838e-03 2.795669009136e-01 
0.110000 9.628002786247e-03 2.808434621050e-01 
0.110500 9.624718060275e-03 2.821200232963e-01 
0.111000 9.621419894683e-03 2.833965844877e-01 
0.111500 9.618108303243e-03 2.846731456791e-01 
0.112000 9.614783299733e-03 2.859497068705e-01 
0.112500 9.611444897938e-03 2.872262680619e-01 
0.113000 9.608093111656e-03 2.885028292533e-01 
0.113500 9.604727954689e-03 2.897793904447e-01 
0.114000 9.601349440850e-03 2.910559516361e-01 
0.114500 9.597957583958e-03 2.923325128274e-01 
0.115000 9.594552397843e-03 2.936090740188e-01 
0.115500 9.591133896341e-03 2.948856352102e-01 
0.116000 9.587702093298e-03 2.961621964016e-01 
0.116500 9.584257002568e-03 2.974387575930e-01 
0.117000 9.580798638011e-03 2.987153187844e-01 
0.117500 9.577327013498e-03 2.999918799758e-01 
0.118000 9.573842142909e-03 3.012684411671e-01 
0.118500 9.570344040128e-03 3.025450023585e-01 
0.119000 9.566832719052e-03 3.038215635499e-01 
0.119500 9.563308193583e-03 3.050981247413e-01 
0.120000 9.559770477633e-03 3.063746859327e-01 
0.120500 9.556219585121e-03 3.076512471241e-01 
0.121000 9.552655529974e-03 3.089278083155e-01 
0.121500 9.549078326130e-03 3.102043695068e-01 
0.122000 9.545487987532e-03 3.114809306982e-01 
0.122500 9.541884528132e-03 3.127574918896e-01 
0.123000 9.538267961891e-03 3.140340530810e-01 
0.123500 9.534638302777e-03 3.153106142724e-01 
0.124000 9.530995564767e-03 3.165871754638e-01 
0.124500 9.527339761845e-03 3.178637366552e-01 
0.125000 9.523670908006e-03 3.191402978465e-01 
0.125500 9.519989017249e-03 3.204168590379e-01 
0.126000 9.516294103584e-03 3.216934202293e-01 
0.126500 9.512586181029e-03 3.229699814207e-01 
0.127000 9.508865263607e-03 3.242465426121e-01 
0.127500 9.505131365353e-03 3.255231038035e-01 
0.128000 9.501384500308e-03 3.267996649949e-01 
0.128500 9.497624682521e-03 3.280762261863e-01 
0.129000 9.493851926050e-03 3.293527873776e-01 
0.129500 9.490066244959e-03 3.306293485690e-01 
0.130000 9.486267653323e-03 3.319059097604e-01 
0.130500 9.482456165222e-03 3.331824709518e-01 
0.131000 9.478631794745e-03 3.344590321432e-01 
0.131500 9.474794555991e-03 3.357355933346e-01 
0.132000 9.470944463063e-03 3.370121545260e-01 
0.132500 9.467081530076e-03 3.382887157173e-01 
0.133000 9.463205771150e-03 3.395652769087e-01 
0.133500 9.459317200413e-03 3.408418381001e-01 
0.134000 9.455415832003e-03 3.421183992915e-01 
0.134500 9.451501680063e-03 3.433949604829e-01 
0.135000 9.447574758747e-03 3.446715216743e-01 
0.135500 9.443635082215e-03 3.459480828657e-01 
0.136000 9.439682664635e-03 3.472246440570e-01 
0.136500 9.435717520182e-03 3.485012052484e-01 
0.137000 9.431739663041e-03 3.497777664398e-01 
0.137500 9.427749107402e-03 3.510543276312e-01 
0.138000 9.423745867466e-03 3.523308888226e-01 
0.138500 9.419729957438e-03 3.536074500140e-01 
0.139000 9.415701391534e-03 3.548840112054e-01 
0.139500 9.411660183976e-03 3.561605723967e-01 
0.140000 9.407606348995e-03 3.574371335881e-01 
0.140500 9.403539900827e-03 3.587136947795e-01 
0.141000 9.399460853719e-03 3.599902559709e-01 
0.141500 9.395369221924e-03 3.612668171623e-01 
0.142000 9.391265019703e-03 3.625433783537e-01 
0.142500 9.387148261324e-03 3.638199395451e-01 
0.143000 9.383018961063e-03 3.650965007365e-01 
0.143500 9.378877133204e-03 3.663730619278e-01 
0.144000 9.374722792038e-03 3.676496231192e-01 
0.144500 9.370555951865e-03 3.689261843106e-01 
0.145000 9.366376626990e-03 3.702027455020e-01 
0.145500 9.362184831727e-03 3.714793066934e-01 
0.146000 9.357980580399e-03 3.727558678848e-01 
0.146500 9.353763887333e-03 3.740324290762e-01 
0.147000 9.349534766868e-03 3.753089902675e-01 
0.147500 9.345293233346e-03 3.765855514589e-01 
0.148000 9.341039301120e-03 3.778621126503e-01 
0.148500 9.336772984547e-03 3.791386738417e-01 
0.149000 9.332494297995e-03 3.804152350331e-01 
0.149500 9.328203255838e-03 3.816917962245e-01 
0.150000 9.323899872456e-03 3.829683574159e-01 
0.150500 9.319584162238e-03 3.842449186072e-01 
0.151000 9.315256139581e-03 3.855214797986e-01 
0.151500 9.310915818888e-03 3.867980409900e-01 
0.152000 9.306563214568e-03 3.880746021814e-01 
0.152500 9.302198341042e-03 3.893511633728e-01 
0.153000 9.297821212733e-03 3.906277245642e-01 
0.153500 9.293431844074e-03 3.919042857556e-01 
0.154000 9.289030249506e-03 3.931808469469e-01 
0.154500 9.284616443476e-03 3.944574081383e-01 
0.155000 9.280190440437e-03 3.957339693297e-01 
0.155500 9.275752254853e-03 3.970105305211e-01 
0.156000 9.271301901191e-03 3.982870917125e-01 
0.156500 9.266839393928e-03 3.995636529039e-01 
0.157000 9.262364747547e-03 4.008402140953e-01 
0.157500 9.257877976538e-03 4.021167752867e-01 
0.158000 9.253379095400e-03 4.033933364780e-01 
0.158500 9.248868118638e-03 4.046698976694e-01 
0.159000 9.244345060761e-03 4.059464588608e-01 
0.159500 9.239809936291e-03 4.072230200522e-01 
0.160000 9.235262759753e-03 4.084995812436e-01 
0.160500 9.230703545680e-03 4.097761424350e-01 
0.161000 9.226132308613e-03 4.110527036264e-01 
0.161500 9.221549063098e-03 4.123292648177e-01 
0.162000 9.216953823690e-03 4.136058260091e-01 
0.162500 9.212346604950e-03 4.148823872005e-01 
0.163000 9.207727421446e-03 4.161589483919e-01 
0.163500 9.203096287754e-03 4.174355095833e-01 
0.164000 9.198453218456e-03 4.187120707747e-01 
0.164500 9.193798228141e-03 4.199886319661e-01 
0.165000 9.189131331405e-03 4.212651931574e-01 
0.165500 9.184452542851e-03 4.225417543488e-01 
0.166000 9.179761877088e-03 4.238183155402e-01 
0.166500 9.175059348734e-03 4.250948767316e-01 
0.167000 9.170344972411e-03 4.263714379230e-01 
0.167500 9.165618762751e-03 4.276479991144e-01 
0.168000 9.160880734391e-03 4.289245603058e-01 
0.168500 9.156130901974e-03 4.302011214971e-01 
0.169000 9.151369280151e-03 4.314776826885e-01 
0.169500 9.146595883579e-03 4.327542438799e-01 
0.170000 9.141810726924e-03 4.340308050713e-01 
0.170500 9.137013824856e-03 4.353073662627e-01 
0.171000 9.132205192052e-03 4.365839274541e-01 
0.171500 9.127384843198e-03 4.378604886455e-01 
0.172000 9.122552792984e-03 4.391370498369e-01 
0.172500 9.117709056107e-03 4.404136110282e-01 
0.173000 9.112853647273e-03 4.416901722196e-01 
0.173500 9.107986581193e-03 4.429667334110e-01 
0.174000 9.103107872583e-03 4.442432946024e-01 
0.174500 9.098217536168e-03 4.455198557938e-01 
0.175000 9.093315586679e-03 4.467964169852e-01 
0.175500 9.088402038853e-03 4.480729781766e-01 
0.176000 9.083476907434e-03 4.493495393679e-01 
0.176500 9.078540207173e-03 4.506261005593e-01 
0.177000 9.073591952826e-03 4.519026617507e-01 
0.177500 9.068632159156e-03 4.531792229421e-01 
0.178000 9.063660840933e-03 4.544557841335e-01 
0.178500 9.058678012934e-03 4.557323453249e-01 
0.179000 9.053683689941e-03 4.570089065163e-01 
0.179500 9.048677886744e-03 4.582854677076e-01 
0.180000 9.043660618137e-03 4.595620288990e-01 
0.180500 9.038631898922e-03 4.608385900904e-01 
0.181000 9.033591743909e-03 4.621151512818e-01 
0.181500 9.028540167910e-03 4.633917124732e-01 
0.182000 9.023477185748e-03 4.646682736646e-01 
0.182500 9.018402812248e-03 4.659448348560e-01 
0.183000 9.013317062246e-03 4.672213960473e-01 
0.183500 9.008219950579e-03 4.684979572387e-01 
0.184000 9.003111492094e-03 4.697745184301e-01 
0.184500 8.997991701644e-03 4.710510796215e-01 
0.185000 8.992860594086e-03 4.723276408129e-01 
0.185500 8.987718184285e-03 4.736042020043e-01 
0.186000 8.982564487112e-03 4.748807631957e-01 
0.186500 8.977399517443e-03 4.761573243871e-01 
0.187000 8.972223290162e-03 4.774338855784e-01 
0.187500 8.967035820157e-03 4.787104467698e-01 
0.188000 8.961837122324e-03 4.799870079612e-01 
0.188500 8.956627211564e-03 4.812635691526e-01 
0.189000 8.951406102785e-03 4.825401303440e-01 
0.189500 8.946173810898e-03 4.838166915354e-01 
0.190000 8.940930350825e-03 4.850932527268e-01 
0.190500 8.935675737489e-03 4.863698139181e-01 
0.191000 8.930409985823e-03 4.876463751095e-01 
0.191500 8.925133110764e-03 4.889229363009e-01 
0.192000 8.919845127255e-03 4.901994974923e-01 
0.192500 8.914546050245e-03 4.914760586837e-01 
0.193000 8.909235894689e-03 4.927526198751e-01 
0.193500 8.903914675549e-03 4.940291810665e-01 
0.194000 8.898582407790e-03 4.953057422578e-01 
0.194500 8.893239106385e-03 4.965823034492e-01 
0.195000 8.887884786314e-03 4.978588646406e-01 
0.195500 8.882519462560e-03 4.991354258320e-01 
0.196000 8.877143150113e-03 5.004119870234e-01 
0.196500 8.871755863969e-03 5.016885482148e-01 
0.197000 8.866357619130e-03 5.029651094062e-01 
0.197500 8.860948430603e-03 5.042416705975e-01 
0.198000 8.855528313401e-03 5.055182317889e-01 
0.198500 8.850097282543e-03 5.067947929803e-01 
0.199000 8.844655353053e-03 5.080713541717e-01 
0.199500 8.839202539961e-03 5.093479153631e-01 
0.200000 8.833738858304e-03 5.106244765545e-01 
0.200500 8.828264323121e-03 5.119010377459e-01 
0.201000 8.822778949460e-03 5.131775989373e-01 
0.201500 8.817282752374e-03 5.144541601286e-01 
